,level,page_num,block_num,par_num,line_num,word_num,left,top,width,height,conf,text
0,1,1,0,0,0,0,0,0,3125,4417,-1.0,
1,2,1,1,0,0,0,176,252,2780,94,-1.0,
2,3,1,1,1,0,0,176,252,2780,94,-1.0,
3,4,1,1,1,1,0,176,252,2780,94,-1.0,
4,5,1,1,1,1,1,176,252,128,94,19.585381,™i
5,5,1,1,1,1,2,339,266,142,70,68.797623,Gm
6,5,1,1,1,1,3,488,267,76,69,91.07003,ail
7,5,1,1,1,1,4,1811,288,395,39,91.79496,Subramaniyaswamy
8,5,1,1,1,1,5,2214,288,28,30,91.958458,V
9,5,1,1,1,1,6,2256,288,700,39,90.620468,<vsubramaniyaswamy@gmail.com>
10,2,1,2,0,0,0,180,461,984,103,-1.0,
11,3,1,2,1,0,0,180,461,984,103,-1.0,
12,4,1,2,1,1,0,180,461,984,53,-1.0,
13,5,1,2,1,1,1,180,461,126,42,92.94825,Your
14,5,1,2,1,1,2,326,461,210,53,91.230125,Monday
15,5,1,2,1,1,3,556,461,220,53,91.061493,morning
16,5,1,2,1,1,4,797,461,89,53,93.017708,trip
17,5,1,2,1,1,5,904,461,110,42,91.431274,with
18,5,1,2,1,1,6,1037,461,127,42,92.273758,Uber
19,4,1,2,1,2,0,181,525,219,39,-1.0,
20,5,1,2,1,2,1,181,525,20,30,93.292633,2
21,5,1,2,1,2,2,215,533,185,31,92.195633,messages
22,2,1,3,0,0,0,181,619,720,86,-1.0,
23,3,1,3,1,0,0,181,619,720,86,-1.0,
24,4,1,3,1,1,0,183,619,718,39,-1.0,
25,5,1,3,1,1,1,183,619,91,31,92.799255,Uber
26,5,1,3,1,1,2,286,619,168,38,91.57814,Receipts
27,5,1,3,1,1,3,469,619,432,39,91.941513,<uber.india@uber.com>
28,4,1,3,1,2,0,181,666,675,39,-1.0,
29,5,1,3,1,2,1,181,666,54,31,92.309303,To:
30,5,1,3,1,2,2,253,666,603,39,91.432602,vsubramaniyaswamy@gmail.com
31,2,1,4,0,0,0,790,908,3,80,-1.0,
32,3,1,4,1,0,0,790,908,3,80,-1.0,
33,4,1,4,1,1,0,790,908,3,80,-1.0,
34,5,1,4,1,1,1,790,908,3,80,95.0, 
35,2,1,5,0,0,0,726,1157,966,221,-1.0,
36,3,1,5,1,0,0,726,1157,966,221,-1.0,
37,4,1,5,1,1,0,726,1157,817,102,-1.0,
38,5,1,5,1,1,1,726,1159,347,78,92.50174,Thanks
39,5,1,5,1,1,2,1106,1157,125,80,92.650375,for
40,5,1,5,1,1,3,1265,1159,278,100,92.599831,"riding,"
41,4,1,5,1,2,0,728,1276,964,102,-1.0,
42,5,1,5,1,2,1,728,1276,964,102,84.538361,Subramaniyaswamy
43,2,1,6,0,0,0,725,1436,867,142,-1.0,
44,3,1,6,1,0,0,725,1436,867,142,-1.0,
45,4,1,6,1,1,0,725,1436,867,60,-1.0,
46,5,1,6,1,1,1,725,1436,92,47,92.797714,We
47,5,1,6,1,1,2,839,1436,135,59,93.002441,hope
48,5,1,6,1,1,3,993,1448,98,48,92.953491,you
49,5,1,6,1,1,4,1113,1436,216,60,89.964096,enjoyed
50,5,1,6,1,1,5,1351,1448,123,48,92.301682,your
51,5,1,6,1,1,6,1493,1436,99,47,91.329254,ride
52,4,1,6,1,2,0,725,1518,354,60,-1.0,
53,5,1,6,1,2,1,725,1518,94,47,91.765457,this
54,5,1,6,1,2,2,842,1518,237,60,92.309219,morning.
55,2,1,7,0,0,0,2380,619,574,39,-1.0,
56,3,1,7,1,0,0,2380,619,574,39,-1.0,
57,4,1,7,1,1,0,2380,619,574,39,-1.0,
58,5,1,7,1,1,1,2380,619,86,36,92.553635,"Mon,"
59,5,1,7,1,1,2,2482,619,70,39,91.981934,Sep
60,5,1,7,1,1,3,2566,619,52,36,96.854149,"30,"
61,5,1,7,1,1,4,2634,619,89,31,93.304489,2019
62,5,1,7,1,1,5,2737,620,33,30,93.167747,at
63,5,1,7,1,1,6,2786,619,96,31,93.295387,12:34
64,5,1,7,1,1,7,2898,619,56,30,91.539238,PM
65,2,1,8,0,0,0,2095,911,316,93,-1.0,
66,3,1,8,1,0,0,2095,911,316,93,-1.0,
67,4,1,8,1,1,0,2176,911,235,29,-1.0,
68,5,1,8,1,1,1,2176,911,89,29,91.403328,Total:
69,5,1,8,1,1,2,2279,911,132,29,92.641014,₹586.87
70,4,1,8,1,2,0,2095,968,316,36,-1.0,
71,5,1,8,1,2,1,2095,968,79,34,91.920578,"Mon,"
72,5,1,8,1,2,2,2189,968,64,36,92.607071,Sep
73,5,1,8,1,2,3,2267,968,48,34,96.475273,"30,"
74,5,1,8,1,2,4,2330,968,81,29,96.624466,2019
75,2,1,9,0,0,0,1952,1373,466,337,-1.0,
76,3,1,9,1,0,0,1952,1373,466,337,-1.0,
77,4,1,9,1,1,0,1952,1373,466,337,-1.0,
78,5,1,9,1,1,1,1952,1373,466,337,95.0, 
79,2,1,10,0,0,0,727,1982,1680,126,-1.0,
80,3,1,10,1,0,0,727,1982,1680,126,-1.0,
81,4,1,10,1,1,0,727,1982,1680,126,-1.0,
82,5,1,10,1,1,1,727,1982,280,126,90.702209,Total
83,5,1,10,1,1,2,1916,1986,491,102,90.050804,₹586.87
84,2,1,11,0,0,0,725,2195,200,47,-1.0,
85,3,1,11,1,0,0,725,2195,200,47,-1.0,
86,4,1,11,1,1,0,725,2195,200,47,-1.0,
87,5,1,11,1,1,1,725,2195,82,47,92.704712,Trip
88,5,1,11,1,1,2,827,2195,98,38,92.780762,Fare
89,2,1,12,0,0,0,726,2482,180,38,-1.0,
90,3,1,12,1,0,0,726,2482,180,38,-1.0,
91,4,1,12,1,1,0,726,2482,180,38,-1.0,
92,5,1,12,1,1,1,726,2482,180,38,91.970802,Subtotal
93,2,1,13,0,0,0,726,2768,299,168,-1.0,
94,3,1,13,1,0,0,726,2768,299,168,-1.0,
95,4,1,13,1,1,0,727,2768,290,38,-1.0,
96,5,1,13,1,1,1,727,2768,144,38,90.960945,Before
97,5,1,13,1,1,2,887,2768,130,38,91.85865,Taxes
98,4,1,13,1,2,0,726,2888,299,48,-1.0,
99,5,1,13,1,2,1,726,2888,137,38,91.967148,CGST
100,5,1,13,1,2,2,881,2888,144,48,96.548721,(2.5%)
101,2,1,14,0,0,0,726,3008,481,48,-1.0,
102,3,1,14,1,0,0,726,3008,481,48,-1.0,
103,4,1,14,1,1,0,726,3008,481,48,-1.0,
104,5,1,14,1,1,1,726,3008,319,38,90.823914,SGST/UTGST
105,5,1,14,1,1,2,1062,3008,145,48,96.434418,(2.5%)
106,2,1,15,0,0,0,720,3295,601,191,-1.0,
107,3,1,15,1,0,0,720,3295,601,191,-1.0,
108,4,1,15,1,1,0,724,3295,381,48,-1.0,
109,5,1,15,1,1,1,724,3295,176,38,91.805611,Amount
110,5,1,15,1,1,2,915,3295,190,48,92.010239,Charged
111,4,1,15,1,2,0,720,3413,601,73,-1.0,
112,5,1,15,1,2,1,720,3413,105,73,6.918709,i(@}
113,5,1,15,1,2,2,869,3430,268,38,92.81591,Paidincash
114,5,1,15,1,2,3,1176,3430,145,38,92.97963,Switch
115,2,1,16,0,0,0,724,3574,1257,36,-1.0,
116,3,1,16,1,0,0,724,3574,1257,36,-1.0,
117,4,1,16,1,1,0,724,3574,1257,36,-1.0,
118,5,1,16,1,1,1,724,3574,72,29,93.028572,Visit
119,5,1,16,1,1,2,805,3574,52,29,93.180862,the
120,5,1,16,1,1,3,868,3574,51,36,92.582588,trip
121,5,1,16,1,1,4,931,3581,83,29,92.058105,page
122,5,1,16,1,1,5,1024,3574,45,29,92.839859,for
123,5,1,16,1,1,6,1083,3581,84,22,92.03714,more
124,5,1,16,1,1,7,1178,3574,195,34,91.74781,"information,"
125,5,1,16,1,1,8,1386,3574,148,36,92.643997,including
126,5,1,16,1,1,9,1547,3574,135,29,90.975815,invoices
127,5,1,16,1,1,10,1694,3574,114,36,50.370956,(Where
128,5,1,16,1,1,11,1819,3574,162,36,91.915421,available)
129,2,1,17,0,0,0,686,3653,66,7,-1.0,
130,3,1,17,1,0,0,686,3653,66,7,-1.0,
131,4,1,17,1,1,0,686,3653,66,7,-1.0,
132,5,1,17,1,1,1,686,3653,66,7,0.0,oemm——
133,2,1,18,0,0,0,724,3953,529,38,-1.0,
134,3,1,18,1,0,0,724,3953,529,38,-1.0,
135,4,1,18,1,1,0,724,3953,529,38,-1.0,
136,5,1,18,1,1,1,724,3953,86,38,92.626274,You
137,5,1,18,1,1,2,830,3953,95,38,92.785576,rode
138,5,1,18,1,1,3,941,3953,85,38,91.916199,with
139,5,1,18,1,1,4,1047,3953,206,38,89.999306,Devarasu
140,2,1,19,0,0,0,2232,2195,179,38,-1.0,
141,3,1,19,1,0,0,2232,2195,179,38,-1.0,
142,4,1,19,1,1,0,2232,2195,179,38,-1.0,
143,5,1,19,1,1,1,2232,2195,179,38,92.413597,₹586.87
144,2,1,20,0,0,0,2232,2482,179,38,-1.0,
145,3,1,20,1,0,0,2232,2482,179,38,-1.0,
146,4,1,20,1,1,0,2232,2482,179,38,-1.0,
147,5,1,20,1,1,1,2232,2482,179,38,92.413597,₹586.87
148,2,1,21,0,0,0,2232,2768,179,38,-1.0,
149,3,1,21,1,0,0,2232,2768,179,38,-1.0,
150,4,1,21,1,1,0,2232,2768,179,38,-1.0,
151,5,1,21,1,1,1,2232,2768,179,38,92.092873,₹558.93
152,2,1,22,0,0,0,2260,2888,151,38,-1.0,
153,3,1,22,1,0,0,2260,2888,151,38,-1.0,
154,4,1,22,1,1,0,2260,2888,151,38,-1.0,
155,5,1,22,1,1,1,2260,2888,151,38,92.610954,₹13.97
156,2,1,23,0,0,0,2260,3008,151,38,-1.0,
157,3,1,23,1,0,0,2260,3008,151,38,-1.0,
158,4,1,23,1,1,0,2260,3008,151,38,-1.0,
159,5,1,23,1,1,1,2260,3008,151,38,92.610954,₹13.97
160,2,1,24,0,0,0,2232,3430,181,38,-1.0,
161,3,1,24,1,0,0,2232,3430,181,38,-1.0,
162,4,1,24,1,1,0,2232,3430,181,38,-1.0,
163,5,1,24,1,1,1,2232,3430,181,38,92.556549,₹586.87
